# Matter power spectrum P(k) at redshift z=0
# for k=1.04914e-05 to 106.158 h/Mpc,
# number of wavenumbers equal to 622
#    1:k (h/Mpc)              2:P (Mpc/h)^3        
       1.049138297417e-05       5.186354503810e+01 
       2.342396053991e-05       1.123038794638e+02 
       3.640238139057e-05       1.716172547216e+02 
       4.946184620543e-05       2.304713146276e+02 
       6.263814250981e-05       2.892423262758e+02 
       7.596796633553e-05       3.482101119530e+02 
       8.948925424533e-05       4.076125740123e+02 
       1.032415301701e-04       4.676679847612e+02 
       1.172662715409e-04       5.285863682125e+02 
       1.316072992332e-04       5.905763489301e+02 
       1.463111958425e-04       6.538498955142e+02 
       1.614277567488e-04       7.186259761761e+02 
       1.770104782357e-04       7.851336626644e+02 
       1.931170865379e-04       8.536149602377e+02 
       2.098101109954e-04       9.243274996817e+02 
       2.271575033589e-04       9.975471951636e+02 
       2.452333035307e-04       1.073570900408e+03 
       2.641183494231e-04       1.152719074198e+03 
       2.839010248726e-04       1.235338461353e+03 
       3.046780343244e-04       1.321804696613e+03 
       3.265551858987e-04       1.412524802683e+03 
       3.496481550454e-04       1.507939397294e+03 
       3.740831889124e-04       1.608524488923e+03 
       3.999976965230e-04       1.714792576492e+03 
       4.275406519614e-04       1.827292768294e+03 
       4.568727175934e-04       1.946609553484e+03 
       4.881659734104e-04       2.073359696408e+03 
       5.216031196660e-04       2.208186893825e+03 
       5.573760075072e-04       2.351753498754e+03 
       5.956833525744e-04       2.504728924049e+03 
       6.367275073307e-04       2.667774395700e+03 
       6.807102174187e-04       2.841523821677e+03 
       7.278273719295e-04       3.026561178117e+03 
       7.782628781657e-04       3.223395076866e+03 
       8.321819400446e-04       3.432432015231e+03 
       8.897241753011e-04       3.653950110599e+03 
       9.509971377943e-04       3.888075815372e+03 
       1.016070878988e-03       4.134766196267e+03 
       1.084974153626e-03       4.393798979084e+03 
       1.157692734244e-03       4.664772142669e+03 
       1.234170062234e-03       4.947113375307e+03 
       1.314310174133e-03       5.240099161855e+03 
       1.397982562938e-03       5.542851521848e+03 
       1.485028425227e-03       5.854440101332e+03 
       1.575267643511e-03       6.173873632463e+03 
       1.668505865696e-03       6.500117293087e+03 
       1.764541147006e-03       6.832134379847e+03 
       1.863169775457e-03       7.168910032596e+03 
       1.964191069376e-03       7.509469693932e+03 
       2.067411083698e-03       7.852892898651e+03 
       2.172645273635e-03       8.198322231677e+03 
       2.279720235556e-03       8.544968823578e+03 
       2.388474679987e-03       8.892113469400e+03 
       2.498759799330e-03       9.239106881051e+03 
       2.610439182623e-03       9.585365868536e+03 
       2.723388409619e-03       9.930370965608e+03 
       2.837494432745e-03       1.027366298688e+04 
       2.952654831918e-03       1.061483379609e+04 
       3.068777006099e-03       1.095353142860e+04 
       3.185777347645e-03       1.128944121297e+04 
       3.303580431277e-03       1.162229419419e+04 
       3.422118238450e-03       1.195185718254e+04 
       3.541329429728e-03       1.227792637381e+04 
       3.661158671782e-03       1.260032762646e+04 
       3.781556021493e-03       1.291891466919e+04 
       3.902476366811e-03       1.323355958330e+04 
       4.023878922195e-03       1.354415548713e+04 
       4.145726775399e-03       1.385061470290e+04 
       4.267986481737e-03       1.415286229503e+04 
       4.390627701757e-03       1.445083488597e+04 
       4.513622878247e-03       1.474449001597e+04 
       4.636946948623e-03       1.503379285165e+04 
       4.760577089001e-03       1.531869361680e+04 
       4.884492486521e-03       1.559917875752e+04 
       5.008674136805e-03       1.587526111062e+04 
       5.133104663715e-03       1.614690904109e+04 
       5.257768158882e-03       1.641415223830e+04 
       5.382650038740e-03       1.667703007522e+04 
       5.507736917047e-03       1.693547975780e+04 
       5.633016491128e-03       1.718956073175e+04 
       5.758477440235e-03       1.743925245443e+04 
       5.884109334671e-03       1.768460170842e+04 
       6.009902554407e-03       1.792514645758e+04 
       6.135848216151e-03       1.816183504237e+04 
       6.261938107886e-03       1.839425789561e+04 
       6.388164630057e-03       1.862243125202e+04 
       6.514520742663e-03       1.884640751054e+04 
       6.640999917589e-03       1.906612316539e+04 
       6.767596095632e-03       1.928174530777e+04 
       6.894303647678e-03       1.949329292331e+04 
       7.021117339616e-03       1.970069256203e+04 
       7.148032300571e-03       1.990416150967e+04 
       7.275043994112e-03       2.010366595723e+04 
       7.402148192131e-03       2.029933807274e+04 
       7.529340951105e-03       2.049053436521e+04 
       7.656618590514e-03       2.067865294032e+04 
       7.783977673183e-03       2.086262611367e+04 
       7.911414987363e-03       2.104279372889e+04 
       8.038927530377e-03       2.121899393485e+04 
       8.166512493683e-03       2.139138910280e+04 
       8.294167249209e-03       2.156037389743e+04 
       8.421889336845e-03       2.172558653484e+04 
       8.549676452977e-03       2.188722097325e+04 
       8.677526439972e-03       2.204614624292e+04 
       8.805437276528e-03       2.220067324011e+04 
       8.933407068789e-03       2.235178259828e+04 
       9.061434042192e-03       2.249934434227e+04 
       9.189516533947e-03       2.264306011460e+04 
       9.317652986111e-03       2.278364141149e+04 
       9.445841939203e-03       2.292092258237e+04 
       9.574082026307e-03       2.305592194371e+04 
       9.702371967631e-03       2.318679685387e+04 
       9.830710565471e-03       2.331442742862e+04 
       9.959096699559e-03       2.343879254039e+04 
       1.008752932275e-02       2.355909306539e+04 
       1.021600745704e-02       2.367734578072e+04 
       1.034453018986e-02       2.379348088899e+04 
       1.047309667066e-02       2.390531196658e+04 
       1.060170610770e-02       2.401309138407e+04 
       1.073035776513e-02       2.411951661647e+04 
       1.085905096024e-02       2.422238381208e+04 
       1.098778506091e-02       2.432340321465e+04 
       1.111655948322e-02       2.441993767419e+04 
       1.124537368931e-02       2.451521832939e+04 
       1.137422718528e-02       2.460573516089e+04 
       1.150311951931e-02       2.469476873248e+04 
       1.163205027989e-02       2.478044427129e+04 
       1.176101909418e-02       2.486399494901e+04 
       1.189002562646e-02       2.494433751979e+04 
       1.201906957675e-02       2.502226614998e+04 
       1.214815067943e-02       2.509855068184e+04 
       1.227726870206e-02       2.517134893455e+04 
       1.240642344421e-02       2.524162442842e+04 
       1.253561473638e-02       2.530888002536e+04 
       1.266484243907e-02       2.537421203564e+04 
       1.279410644182e-02       2.543572801726e+04 
       1.292340666237e-02       2.549572291660e+04 
       1.305274304587e-02       2.555456016964e+04 
       1.318211556417e-02       2.560884268015e+04 
       1.331152421514e-02       2.566186720041e+04 
       1.344096902205e-02       2.571348851068e+04 
       1.357045003298e-02       2.576238851296e+04 
       1.369996732034e-02       2.580714482205e+04 
       1.382952098034e-02       2.585215808016e+04 
       1.395911113259e-02       2.589284866609e+04 
       1.408873791967e-02       2.593281538992e+04 
       1.421840150681e-02       2.597059466678e+04 
       1.434810208151e-02       2.600516967834e+04 
       1.447783985328e-02       2.603819339463e+04 
       1.460761505337e-02       2.606967671766e+04 
       1.473742793454e-02       2.609857444930e+04 
       1.486727877086e-02       2.612447000739e+04 
       1.499716785755e-02       2.614930031223e+04 
       1.512709551079e-02       2.617319641761e+04 
       1.525706206766e-02       2.619303201618e+04 
       1.538706788601e-02       2.621192123622e+04 
       1.551711334436e-02       2.622929826745e+04 
       1.564719884192e-02       2.624477322972e+04 
       1.577732479851e-02       2.625725982227e+04 
       1.590749165457e-02       2.626886506775e+04 
       1.603769987118e-02       2.627931579342e+04 
       1.616794993010e-02       2.628745866095e+04 
       1.629824233382e-02       2.629354603449e+04 
       1.642857760562e-02       2.629709374736e+04 
       1.655895628970e-02       2.629982727038e+04 
       1.668937895126e-02       2.630087948340e+04 
       1.681984617665e-02       2.630085856477e+04 
       1.695035857351e-02       2.629856739510e+04 
       1.708091677095e-02       2.629456660034e+04 
       1.721152141972e-02       2.628898237283e+04 
       1.734217319240e-02       2.628109800322e+04 
       1.747287278365e-02       2.627267596744e+04 
       1.760362091042e-02       2.626230387486e+04 
       1.773441831223e-02       2.625117122097e+04 
       1.786526575139e-02       2.623812772966e+04 
       1.799616401333e-02       2.622358788449e+04 
       1.812711390689e-02       2.620728285942e+04 
       1.825811626462e-02       2.618932656114e+04 
       1.838917194314e-02       2.617084510586e+04 
       1.852028182347e-02       2.614972073989e+04 
       1.865144681143e-02       2.612803285169e+04 
       1.878266783799e-02       2.610498588920e+04 
       1.891394585968e-02       2.608059732918e+04 
       1.904528185904e-02       2.605514771323e+04 
       1.917667684501e-02       2.602797414734e+04 
       1.930813185343e-02       2.599979724144e+04 
       1.943964794749e-02       2.597033107183e+04 
       1.957122621822e-02       2.593972046368e+04 
       1.970286778499e-02       2.590779002104e+04 
       1.983457379608e-02       2.587471467233e+04 
       1.996634542916e-02       2.584050667483e+04 
       2.009818389193e-02       2.580575122255e+04 
       2.023009042265e-02       2.576933406262e+04 
       2.036206629077e-02       2.573113282140e+04 
       2.049411279756e-02       2.569245772932e+04 
       2.062623127675e-02       2.565268419137e+04 
       2.075842309519e-02       2.561243755593e+04 
       2.089068965356e-02       2.557059181484e+04 
       2.102303238708e-02       2.552772242742e+04 
       2.115545276623e-02       2.548388992341e+04 
       2.128795229755e-02       2.543910526510e+04 
       2.142053252436e-02       2.539276596493e+04 
       2.155319502765e-02       2.534611858241e+04 
       2.168594142685e-02       2.529893391740e+04 
       2.181877338073e-02       2.525027622976e+04 
       2.195169258825e-02       2.520076188990e+04 
       2.208470078955e-02       2.515002433253e+04 
       2.221779976680e-02       2.509890544985e+04 
       2.235099134525e-02       2.504737584219e+04 
       2.248427739422e-02       2.499428946480e+04 
       2.261765982811e-02       2.494076065179e+04 
       2.275114060748e-02       2.488589409627e+04 
       2.288472174019e-02       2.483092320021e+04 
       2.301840528249e-02       2.477470551574e+04 
       2.315219334022e-02       2.471843842580e+04 
       2.328608806999e-02       2.466049702065e+04 
       2.342009168048e-02       2.460236387709e+04 
       2.355420643368e-02       2.454336330568e+04 
       2.368843464625e-02       2.448388677659e+04 
       2.382277869087e-02       2.442381674275e+04 
       2.395724099765e-02       2.436306079855e+04 
       2.409182405561e-02       2.430148386286e+04 
       2.422653041417e-02       2.423902136052e+04 
       2.436136268472e-02       2.417627007207e+04 
       2.449632354219e-02       2.411319109258e+04 
       2.463141572675e-02       2.404921782536e+04 
       2.476664204549e-02       2.398476193110e+04 
       2.490200537418e-02       2.391967667771e+04 
       2.503750865913e-02       2.385373007669e+04 
       2.517315491901e-02       2.378762292120e+04 
       2.530894724688e-02       2.372123312497e+04 
       2.544488881212e-02       2.365376763953e+04 
       2.558098286255e-02       2.358649806751e+04 
       2.571723272659e-02       2.351819145988e+04 
       2.585364181543e-02       2.344948807094e+04 
       2.599021362536e-02       2.338043059324e+04 
       2.612695174015e-02       2.331110766665e+04 
       2.626385983348e-02       2.324103269578e+04 
       2.640094167151e-02       2.317065918508e+04 
       2.653820111547e-02       2.310025084874e+04 
       2.667564212443e-02       2.302897787247e+04 
       2.681326875806e-02       2.295747077686e+04 
       2.695108517961e-02       2.288552924980e+04 
       2.708909565889e-02       2.281317433199e+04 
       2.722730457538e-02       2.274060865883e+04 
       2.736571642155e-02       2.266779875618e+04 
       2.750433580613e-02       2.259450901257e+04 
       2.764316745766e-02       2.252094476552e+04 
       2.778221622809e-02       2.244711417418e+04 
       2.792148709649e-02       2.237316190840e+04 
       2.806098517300e-02       2.229854301149e+04 
       2.820071570282e-02       2.222411353420e+04 
       2.834068407041e-02       2.214914442128e+04 
       2.848089580385e-02       2.207366985304e+04 
       2.862135657935e-02       2.199843506635e+04 
       2.876207222592e-02       2.192271143128e+04 
       2.890304873032e-02       2.184690876825e+04 
       2.904429224203e-02       2.177055909467e+04 
       2.918580907861e-02       2.169433468166e+04 
       2.932760573113e-02       2.161790255438e+04 
       2.946968886989e-02       2.154102308667e+04 
       2.961206535038e-02       2.146424271692e+04 
       2.975474221943e-02       2.138718573397e+04 
       2.989772672167e-02       2.130994644983e+04 
       3.004102630621e-02       2.123250593682e+04 
       3.018464863370e-02       2.115503359838e+04 
       3.032860158352e-02       2.107722680629e+04 
       3.047289326147e-02       2.099947520496e+04 
       3.061753200766e-02       2.092150407641e+04 
       3.076252640476e-02       2.084354129404e+04 
       3.090788528671e-02       2.076547212773e+04 
       3.105361774768e-02       2.068717534302e+04 
       3.119973315151e-02       2.060880146953e+04 
       3.134624114162e-02       2.053025952920e+04 
       3.149315165122e-02       2.045172035198e+04 
       3.164047491419e-02       2.037307802403e+04 
       3.178822147627e-02       2.029432595776e+04 
       3.193640220692e-02       2.021572940958e+04 
       3.208502831170e-02       2.013691429802e+04 
       3.223411134516e-02       2.005789945225e+04 
       3.238366322452e-02       1.997904730397e+04 
       3.253369624383e-02       1.990021338272e+04 
       3.268422308897e-02       1.982116331847e+04 
       3.283525685331e-02       1.974215997103e+04 
       3.298681105422e-02       1.966313836582e+04 
       3.313889965035e-02       1.958396419587e+04 
       3.329153705984e-02       1.950492318417e+04 
       3.344473817948e-02       1.942573147067e+04 
       3.359851840481e-02       1.934667359712e+04 
       3.375289365137e-02       1.926762418526e+04 
       3.390788037700e-02       1.918840506863e+04 
       3.406349560540e-02       1.910926998281e+04 
       3.421975695095e-02       1.903006853652e+04 
       3.437668264490e-02       1.895107787379e+04 
       3.453429156303e-02       1.887185575344e+04 
       3.469260325482e-02       1.879280127381e+04 
       3.485163797439e-02       1.871365324408e+04 
       3.501141671309e-02       1.863471203439e+04 
       3.517196123408e-02       1.855564474008e+04 
       3.533329410891e-02       1.847649592135e+04 
       3.549543875630e-02       1.839759837421e+04 
       3.565841948324e-02       1.831849806222e+04 
       3.582226152858e-02       1.823952008123e+04 
       3.598699110941e-02       1.816068881370e+04 
       3.615263547020e-02       1.808185168282e+04 
       3.631922293514e-02       1.800288583214e+04 
       3.648678296383e-02       1.792418624228e+04 
       3.665534621057e-02       1.784536955125e+04 
       3.682494458748e-02       1.776662884939e+04 
       3.699561133198e-02       1.768777090494e+04 
       3.716738107864e-02       1.760915994046e+04 
       3.734028993607e-02       1.753045096003e+04 
       3.751437556906e-02       1.745185067578e+04 
       3.768967728653e-02       1.737329152607e+04 
       3.786623613567e-02       1.729474892254e+04 
       3.804409500298e-02       1.721617691886e+04 
       3.822329872254e-02       1.713774812410e+04 
       3.840389419248e-02       1.705929777333e+04 
       3.858593050008e-02       1.698071099821e+04 
       3.876945905647e-02       1.690238925973e+04 
       3.895453374177e-02       1.682397688624e+04 
       3.914121106166e-02       1.674557110027e+04 
       3.932955031634e-02       1.666723543163e+04 
       3.951961378334e-02       1.658878765125e+04 
       3.971146691524e-02       1.651042523979e+04 
       3.990517855398e-02       1.643203930176e+04 
       4.010082116342e-02       1.635369400997e+04 
       4.029847108188e-02       1.627543116394e+04 
       4.049820879692e-02       1.619701022139e+04 
       4.070011924464e-02       1.611865145824e+04 
       4.090429213612e-02       1.604005749542e+04 
       4.111082231400e-02       1.596167708335e+04 
       4.131981014265e-02       1.588317829310e+04 
       4.153136193556e-02       1.580470384803e+04 
       4.174559042444e-02       1.572605955086e+04 
       4.196261527478e-02       1.564741171146e+04 
       4.218256365362e-02       1.556856497929e+04 
       4.240557085572e-02       1.548971518248e+04 
       4.263178099548e-02       1.541077324482e+04 
       4.286134777303e-02       1.533172308101e+04 
       4.309443532392e-02       1.525270331489e+04 
       4.333121916359e-02       1.517339592357e+04 
       4.357188723927e-02       1.509388154113e+04 
       4.381664110418e-02       1.501429628290e+04 
       4.406569723112e-02       1.493451790664e+04 
       4.431928848542e-02       1.485456259121e+04 
       4.457766578068e-02       1.477449009107e+04 
       4.484109994452e-02       1.469388738946e+04 
       4.510988382673e-02       1.461319951858e+04 
       4.538433468745e-02       1.453219748872e+04 
       4.566479691065e-02       1.445089119766e+04 
       4.595164509587e-02       1.436931712970e+04 
       4.624528759215e-02       1.428756113037e+04 
       4.654617055002e-02       1.420490133229e+04 
       4.685478258300e-02       1.412220698574e+04 
       4.717166014892e-02       1.403880011035e+04 
       4.749739378445e-02       1.395519838074e+04 
       4.783263535514e-02       1.387079484623e+04 
       4.817810651936e-02       1.378592541511e+04 
       4.853460864905e-02       1.370001349007e+04 
       4.890303450685e-02       1.361391703455e+04 
       4.928438205019e-02       1.352650098257e+04 
       4.967977082258e-02       1.343880714530e+04 
       5.009046150660e-02       1.334951289280e+04 
       5.051787935797e-02       1.325932306473e+04 
       5.096364242509e-02       1.316833788756e+04 
       5.142959569394e-02       1.307596736143e+04 
       5.191785259835e-02       1.298188645402e+04 
       5.243084571529e-02       1.288611934128e+04 
       5.297138894153e-02       1.278867700536e+04 
       5.354275403591e-02       1.268844183077e+04 
       5.414876511446e-02       1.258698175468e+04 
       5.479391548097e-02       1.248134335630e+04 
       5.548351197625e-02       1.237408975416e+04 
       5.622385261360e-02       1.226208824389e+04 
       5.702244314257e-02       1.214568909530e+04 
       5.788825632155e-02       1.202376013162e+04 
       5.883203206600e-02       1.189508841641e+04 
       5.986660351782e-02       1.175821183157e+04 
       6.100720695421e-02       1.161104376114e+04 
       6.227168240564e-02       1.145032786772e+04 
